# Sylvania Diazo Metal Halide Lamp with Mercury, gallium and lead iodides
#
#    Spectral data Copyright (c) 1998-2009 by I.N. Galidakis          
#                                                                     
#    Extracted from page:                                             
#    <http://ioannis.virtualcomposer2000.com/spectroscope/amici.html> 
#                                                                     
#    This data is distributed in the hope that it will be useful,     
#    but WITHOUT ANY WARRANTY; without even the implied warranty of   
#    MERCHANTABILITY or FITNESS FOR A PARTICULAR PURPOSE.  See the    
#    CCL 3.0 Creative Commons License 3.0 for more details.           
#                                                                     
#    You should have received a copy of the CCL 3.0                   
#    along with this program.  If not, see:                           
#    <http://creativecommons.org/licenses/by/3.0/>.                   
#
404.756989	0.293062
404.901001	0.445299
405.054993	0.517245
405.221008	0.597838
405.398010	0.635193
405.584991	0.559276
405.782013	0.518451
405.989990	0.601860
406.208008	0.586224
406.436005	0.490397
406.674011	0.470438
406.920990	0.453846
407.177002	0.423680
407.442993	0.385370
407.717010	0.359729
408.000000	0.370639
408.291992	0.356712
408.592010	0.239417
408.901001	0.162293
409.217987	0.156058
409.541992	0.151936
409.875000	0.153394
410.214996	0.157516
410.562988	0.161136
410.917999	0.163851
411.279999	0.166214
411.649994	0.172097
412.026001	0.198089
412.408997	0.218351
412.799011	0.247210
413.195007	0.283509
413.596985	0.349371
414.006012	0.421317
414.420990	0.498190
414.842010	0.518200
415.269012	0.522976
415.701996	0.568627
416.140015	0.666013
416.584015	0.832479
417.032990	0.857717
417.487000	0.751785
417.946991	0.632630
418.411987	0.605731
418.881989	0.604726
419.355988	0.614479
419.835999	0.623429
420.320007	0.606787
420.808990	0.589945
421.302002	0.566817
421.799988	0.543439
422.302002	0.524887
422.808990	0.490649
423.319000	0.447562
423.834015	0.419407
424.352997	0.386828
424.876007	0.364404
425.402008	0.341227
425.933014	0.325390
426.467010	0.317144
427.005005	0.306335
427.546997	0.293816
428.092010	0.286878
428.640991	0.282101
429.194000	0.279889
429.750000	0.280392
430.308990	0.282705
430.872009	0.275314
431.437988	0.270387
432.006989	0.282303
432.579010	0.312217
433.154999	0.365812
433.734009	0.430970
434.316010	0.502413
434.901001	0.526697
435.489990	0.530166
436.080994	0.680443
436.675995	0.828255
437.273987	0.732881
437.873993	0.550126
438.477997	0.478381
439.084991	0.452791
439.695007	0.423278
440.307007	0.427300
440.923004	0.435395
441.541992	0.444143
442.164001	0.462846
442.789001	0.475918
443.416992	0.486878
444.048004	0.488638
444.683014	0.485621
445.320007	0.471192
445.959991	0.438059
446.604004	0.386677
447.251007	0.334590
447.901001	0.292056
448.553986	0.265259
449.209991	0.241880
449.869995	0.221066
450.532990	0.215284
451.200012	0.212217
451.869995	0.207944
452.542999	0.205530
453.220001	0.202916
453.901001	0.199045
454.584991	0.195726
455.273010	0.194620
455.964996	0.191956
456.660004	0.193665
457.359009	0.195877
458.062988	0.200352
458.769989	0.207240
459.480988	0.216491
460.196991	0.227200
460.915985	0.235344
461.640015	0.243238
462.368988	0.249020
463.101990	0.258019
463.838989	0.263248
464.580994	0.265510
465.328003	0.260231
466.079987	0.248668
466.835999	0.239467
467.597992	0.226295
468.364990	0.221971
469.136993	0.222826
469.914001	0.222172
470.696991	0.228607
471.484985	0.232780
472.278992	0.241177
473.079010	0.246355
473.885010	0.238864
474.696991	0.232780
475.515015	0.228105
476.338989	0.228607
477.170013	0.227200
478.007996	0.228356
478.851990	0.228859
479.703003	0.227853
480.559998	0.225691
481.424988	0.230618
482.298004	0.229563
483.177002	0.226144
484.063995	0.223731
484.959015	0.223429
485.862000	0.227753
486.773010	0.228507
487.691986	0.217748
488.619995	0.215887
489.554993	0.222122
490.500000	0.237909
491.453003	0.268527
492.415985	0.300402
493.388000	0.256511
494.368988	0.244143
495.359009	0.234641
496.359985	0.213625
497.369995	0.201659
498.390991	0.195173
499.420990	0.192358
500.463013	0.190850
501.515015	0.180744
502.578003	0.180543
503.652008	0.171443
504.737000	0.156511
505.834015	0.144646
506.942993	0.142735
508.062988	0.145902
509.196014	0.147009
510.341003	0.151131
511.498993	0.157064
512.669006	0.164807
513.853027	0.164505
515.049011	0.165812
516.260010	0.170739
517.484009	0.176018
518.721985	0.182906
519.973999	0.188487
521.239990	0.190699
522.521973	0.193967
523.817993	0.195576
525.129028	0.198844
526.455994	0.203067
527.797974	0.207743
529.156982	0.212569
530.531006	0.220965
531.921997	0.232328
533.330017	0.236853
534.755005	0.320965
536.197021	0.364455
537.656006	0.261639
539.132996	0.237808
540.629028	0.256310
542.142029	0.243791
543.674988	0.305430
545.226013	0.577677
546.796021	0.666868
548.385986	0.491353
549.994995	0.263248
551.625000	0.237305
553.275024	0.246104
554.945984	0.239819
556.637024	0.232982
558.349976	0.227300
560.083984	0.222423
561.841003	0.220965
563.619019	0.219558
565.419983	0.212368
567.244019	0.205480
569.091003	0.202665
570.960999	0.202162
572.854980	0.177376
574.773010	0.186023
576.716003	0.408095
578.682983	0.567169
580.676025	0.602313
582.693970	0.396431
584.737000	0.252640
586.807007	0.289643
588.903015	0.327451
591.026001	0.344595
593.176025	0.334892
595.354004	0.331473
597.559021	0.338864
599.793030	0.343489
602.054993	0.336048
604.346985	0.328406
606.666992	0.321217
609.017029	0.310558
611.398010	0.296531
613.807983	0.285520
616.250000	0.273404
618.721985	0.260835
621.226013	0.248969
623.762024	0.242534
626.330017	0.228356
628.931030	0.217999
631.565002	0.203469
634.232971	0.212670
636.934021	0.246908
639.669983	0.306033
642.440002	0.380292
645.245972	0.312871
648.085999	0.160080
650.963013	0.112770
653.875977	0.090297
656.825989	0.082604
659.812988	0.068627
662.836975	0.059578
665.898987	0.045651
669.000000	0.034289
